time(s),10ms,40ms,70ms,100ms
0.0002,182.3011,184.5232,184.8434,184.9716
0.0004,188.4746,192.8637,193.5015,193.7574
0.0006,194.5307,201.0328,201.9858,202.3687
0.0008,200.4331,208.9955,210.2611,210.7705
0.001,206.1463,216.7172,218.2931,218.9282
0.0012,211.636,224.1647,226.0484,226.8086
0.0014,216.8686,231.3057,233.4946,234.3795
0.0016,221.8121,238.109,240.6009,241.6097
0.0018,226.4359,244.545,247.3374,248.4695
0.002,230.7106,250.5854,253.6759,254.9308
0.0022,234.6086,256.2035,259.5898,260.9668
0.0024,238.1039,261.3744,265.054,266.5526
0.0026,241.1724,266.0748,270.0454,271.6649
0.0028,243.7918,270.2833,274.5427,276.2825
0.003,245.9418,273.9806,278.5263,280.3859
0.0032,247.6043,277.1494,281.9791,283.9579
0.0034,248.7629,279.7742,284.8858,286.9831
0.0036,249.4039,281.8422,287.2332,289.4485
0.0038,249.5155,283.3422,289.0105,291.3432
0.004,249.0882,284.2658,290.2091,292.6586
0.0042,248.1149,284.6066,290.8226,293.3884
0.0044,246.5908,284.3605,290.847,293.5285
0.0046,244.5135,283.5258,290.2807,293.0772
0.0048,241.8827,282.1033,289.1242,292.0353
0.005,238.7008,280.0957,287.3806,290.4056
0.0052,234.9722,277.5085,285.0551,288.1935
0.0054,230.704,274.3491,282.1554,285.4066
0.0056,225.9052,270.6276,278.6913,282.0547
0.0058,220.5873,266.3559,274.6749,278.15
0.006,214.7639,261.5483,270.1206,273.7068
0.0062,208.4507,256.2213,265.0447,268.7415
0.0064,201.6656,250.3933,259.4657,263.2725
0.0066,194.4284,244.0848,253.4041,257.3203
0.0068,186.7608,237.318,246.8823,250.9074
0.007,178.6866,230.1173,239.9244,244.0578
0.0072,170.2308,222.5085,232.5564,236.7976
0.0074,161.4206,214.5192,224.8058,229.1543
0.0076,152.2844,206.1784,216.7017,221.1569
0.0078,142.8522,197.5165,208.2746,212.8359
0.008,133.155,188.5653,199.5561,204.2231
0.0082,123.2253,179.3577,190.5793,195.3514
0.0084,113.0964,169.9275,181.3779,186.2545
0.0086,102.8027,160.3096,171.9869,176.9675
0.0088,92.3791,150.5395,162.4417,167.5258
0.009,81.8614,140.6534,152.7786,157.9656
0.0092,71.2857,130.6879,143.0341,148.3236
0.0094,60.6885,120.68,133.2454,138.6367
0.0096,50.1065,110.6667,123.4494,128.9421
0.0098,39.5763,100.6853,113.6834,119.277
0.01,29.1347,90.7729,103.9845,109.6784
0.0102,18.8179,80.9662,94.3894,100.1831
0.0104,8.662,71.3015,84.9346,90.8276
0.0106,-1.2977,61.8148,75.6558,81.6477
0.0108,-11.0263,52.5413,66.5884,72.6785
0.011,-20.4901,43.5151,57.7666,63.9544
0.0112,-29.6559,34.7697,49.2237,55.5088
0.0114,-38.492,26.3373,40.992,47.3738
0.0116,-46.9676,18.249,33.1027,39.5807
0.0118,-55.0535,10.5344,25.5853,32.159
0.012,-62.7218,3.2218,18.4681,25.1371
0.0122,-69.9462,-3.6622,11.7778,18.5415
0.0124,-76.7021,-10.0927,5.5393,12.3973
0.0126,-82.9665,-16.0463,-0.2241,6.7276
0.0128,-88.7186,-21.5019,-5.4912,1.5538
0.013,-93.9393,-26.44,-10.2425,-3.1048
0.0132,-98.6116,-30.8433,-14.4607,-7.2308
0.0134,-102.7205,-34.6967,-18.1306,-10.8089
0.0136,-106.2534,-37.9869,-21.2391,-13.8261
0.0138,-109.1995,-40.7032,-23.7753,-16.2715
0.014,-111.5507,-42.837,-25.7306,-18.1365
0.0142,-113.3008,-44.3819,-27.0987,-19.4147
0.0144,-114.4462,-45.3339,-27.8755,-20.1022
0.0146,-114.9855,-45.6914,-28.0595,-20.1973
0.0148,-114.9195,-45.455,-27.6511,-19.7005
0.015,-114.2516,-44.6278,-26.6535,-18.615
0.0152,-112.9874,-43.2149,-25.0719,-16.9459
0.0154,-111.1346,-41.2242,-22.9139,-14.701
0.0156,-108.7034,-38.6653,-20.1895,-11.89
0.0158,-105.7063,-35.5505,-16.9106,-8.5251
0.016,-102.1577,-31.8941,-13.0917,-4.6206
0.0162,-98.0742,-27.7125,-8.7491,-0.1929
0.0164,-93.4747,-23.0242,-3.9014,4.7396
0.0166,-88.3798,-17.8497,1.4311,10.1562
0.0168,-82.8122,-12.2113,7.2259,16.0348
0.017,-76.7962,-6.1333,13.4588,22.351
0.0172,-70.3581,0.3584,20.1039,29.0789
0.0174,-63.5255,7.2362,27.1336,36.191
0.0176,-56.3278,14.471,34.5189,43.6582
0.0178,-48.7956,22.0324,42.2293,51.4501
0.018,-40.9608,29.8886,50.233,59.5349
0.0182,-32.8567,38.0066,58.4972,67.8796
0.0184,-24.5172,46.3527,66.9879,76.4505
0.0186,-15.9775,54.8919,75.6703,85.2127
0.0188,-7.2732,63.5887,84.5089,94.1305
0.019,1.5593,72.4068,93.4675,103.1679
0.0192,10.4832,81.3097,102.5094,112.2882
0.0194,19.4613,90.2603,111.5976,121.4544
0.0196,28.4562,99.2214,120.695,130.6293
0.0198,37.4307,108.156,129.7645,139.7758
0.02,46.3475,117.0268,138.7688,148.8568
0.0202,55.1696,125.7972,147.6713,157.8356
0.0204,63.8605,134.4305,156.4355,166.6756
0.0206,72.3841,142.8911,165.0256,175.341
0.0208,80.7052,151.1437,173.4063,183.7967
0.021,88.7892,159.154,181.5435,192.0084
0.0212,96.6026,166.8886,189.4036,199.9426
0.0214,104.1131,174.3152,196.9544,207.5671
0.0216,111.2893,181.4028,204.1649,214.8509
0.0218,118.1016,188.1216,211.0053,221.7642
0.022,124.5214,194.4434,217.4475,228.2788
0.0222,130.5221,200.3416,223.4648,234.3681
0.0224,136.0785,205.7911,229.0321,240.007
0.0226,141.1672,210.7687,234.1262,245.1724
0.0228,145.7669,215.2531,238.726,249.8429
0.023,149.8579,219.2248,242.8118,253.9991
0.0232,153.4229,222.6667,246.3665,257.6238
0.0234,156.4465,225.5633,249.3748,260.7017
0.0236,158.9155,227.9016,251.8235,263.2196
0.0238,160.8189,229.6707,253.7018,265.1667
0.024,162.1479,230.862,255.0011,266.5344
0.0242,162.8962,231.4691,255.7151,267.3163
0.0244,163.0595,231.488,255.8397,267.5085
0.0246,162.6362,230.9171,255.3732,267.1093
0.0248,161.6267,229.7569,254.3164,266.1192
0.025,160.0339,228.0104,252.672,264.5413
0.0252,157.8631,225.6829,250.4456,262.3809
0.0254,155.1217,222.7821,247.6446,259.6455
0.0256,151.8196,219.3177,244.279,256.3451
0.0258,147.9686,215.3019,240.3608,252.4918
0.026,143.5832,210.749,235.9044,248.0999
0.0262,138.6795,205.6753,230.9261,243.1857
0.0264,133.2759,200.0994,225.4444,237.7678
0.0266,127.3929,194.0417,219.4799,231.8666
0.0268,121.0528,187.5246,213.0548,225.5045
0.027,114.2796,180.5722,206.1935,218.7057
0.0272,107.0992,173.2105,198.9217,211.4961
0.0274,99.5391,165.4671,191.2671,203.9034
0.0276,91.6282,157.3709,183.2587,195.9564
0.0278,83.3971,148.9524,174.927,187.6858
0.028,74.8772,140.2435,166.3037,179.1232
0.0282,66.1014,131.2768,157.4217,170.3016
0.0284,57.1037,122.0865,148.3149,161.2549
0.0286,47.9187,112.7072,139.0182,152.0178
0.0288,38.5819,103.1745,129.5671,142.6259
0.029,29.1294,93.5247,119.9978,133.1155
0.0292,19.5979,83.7942,110.3469,123.5231
0.0294,10.0242,74.0201,100.6514,113.8858
0.0296,0.4454,64.2396,90.9484,104.2406
0.0298,-9.1014,54.4898,81.2751,94.6249
0.03,-18.5792,44.8078,71.6686,85.0755
0.0302,-27.9511,35.2303,62.1658,75.6294
0.0304,-37.181,25.7938,52.8029,66.3229
0.0306,-46.2329,16.534,43.6158,57.1919
0.0308,-55.0718,7.4863,34.6398,48.2716
0.031,-63.6634,-1.3152,25.9091,39.5963
0.0312,-71.9743,-9.837,17.4571,31.1993
0.0314,-79.9724,-18.0469,9.3161,23.113
0.0316,-87.6267,-25.9139,1.5171,15.3683
0.0318,-94.9075,-33.4082,-5.9102,7.9951
0.032,-101.7866,-40.5016,-12.9375,1.0214
0.0322,-108.2375,-47.1676,-19.5382,-5.526
0.0324,-114.2351,-53.381,-25.6873,-11.6222
0.0326,-119.7564,-59.1187,-31.3617,-17.2439
0.0328,-124.78,-64.3595,-36.5399,-22.3698
0.033,-129.2866,-69.0839,-41.2026,-26.9805
0.0332,-133.259,-73.2745,-45.3325,-31.0588
0.0334,-136.6818,-76.9162,-48.9143,-34.5893
0.0336,-139.5422,-79.9959,-51.935,-37.559
0.0338,-141.8292,-82.5027,-54.3836,-39.957
0.034,-143.5342,-84.428,-56.2516,-41.7747
0.0342,-144.651,-85.7654,-57.5326,-43.0057
0.0344,-145.1757,-86.5111,-58.2226,-43.646
0.0346,-145.1065,-86.6632,-58.32,-43.694
0.0348,-144.4441,-86.2225,-57.8253,-43.1504
0.035,-143.1916,-85.1919,-56.7416,-42.0179
0.0352,-141.3542,-83.5767,-55.0741,-40.3021
0.0354,-138.9398,-81.3846,-52.8306,-38.0105
0.0356,-135.958,-78.6255,-50.0207,-35.153
0.0358,-132.4212,-75.3114,-46.6568,-31.7416
0.036,-128.3436,-71.4567,-42.753,-27.7907
0.0362,-123.7416,-67.0778,-38.3258,-23.3167
0.0364,-118.6339,-62.1931,-33.3937,-18.3381
0.0366,-113.0408,-56.8232,-27.977,-12.8753
0.0368,-106.9849,-50.9904,-22.0984,-6.9507
0.037,-100.4902,-44.719,-15.7818,-0.5886
0.0372,-93.5829,-38.0349,-9.0533,6.1852
0.0374,-86.2904,-30.9657,-1.9404,13.343
0.0376,-78.6419,-23.5403,5.5279,20.8559
0.0378,-70.6679,-15.7893,13.321,28.6933
0.038,-62.4001,-7.7445,21.4072,36.8235
0.0382,-53.8714,0.5613,29.7536,45.2137
0.0384,-45.1158,9.0941,38.3263,53.8299
0.0386,-36.1682,17.8191,47.0906,62.6372
0.0388,-27.0641,26.7008,56.0107,71.6002
0.039,-17.8397,35.7029,65.0505,80.6826
0.0392,-8.5317,44.7888,74.1735,89.8478
0.0394,0.8229,53.9216,83.3426,99.0588
0.0396,10.1869,63.064,92.5206,108.2785
0.0398,19.5232,72.1789,101.6704,117.4696
0.04,28.7946,81.2291,110.7549,126.5952
0.0402,37.9643,90.178,119.7374,135.6184
0.0404,46.9958,98.9891,128.5813,144.5028
0.0406,55.8534,107.6264,137.2508,153.2126
0.0408,64.5018,116.0549,145.7108,161.7125
0.041,72.9066,124.2402,153.9269,169.9683
0.0412,81.0346,132.1489,161.8658,177.9465
0.0414,88.8533,139.7488,169.4952,185.615
0.0416,96.3317,147.0088,176.7841,192.9426
0.0418,103.4401,153.8991,183.7026,199.8997
0.042,110.1503,160.3916,190.2227,206.458
0.0422,116.4355,166.4596,196.3176,212.5909
0.0424,122.2708,172.0781,201.9624,218.2733
0.0426,127.633,177.2238,207.1338,223.4821
0.0428,132.5006,181.8755,211.8105,228.196
0.043,136.8544,186.0138,215.9732,232.3955
0.0432,140.6769,189.6212,219.6044,236.0633
0.0434,143.9529,192.6827,222.6891,239.1842
0.0436,146.6692,195.1849,225.2139,241.7451
0.0438,148.8151,197.1172,227.1682,243.7352
0.044,150.3818,198.4709,228.5432,245.1457
0.0442,151.363,199.2395,229.3326,245.9704
0.0444,151.7548,199.4192,229.5325,246.2052
0.0446,151.5553,199.0082,229.1411,245.8485
0.0448,150.7652,198.0072,228.1591,244.9009
0.045,149.3875,196.419,226.5894,243.3654
0.0452,147.4275,194.2491,224.4373,241.2473
0.0454,144.8928,191.5051,221.7106,238.5542
0.0456,141.7932,188.1967,218.4189,235.2959
0.0458,138.1408,184.3361,214.5745,231.4847
0.046,133.9499,179.9377,210.1917,227.1347
0.0462,129.237,175.0177,205.2867,222.2624
0.0464,124.0204,169.5947,199.8782,216.8863
0.0466,118.3207,163.6891,193.9866,211.0268
0.0468,112.1602,157.3233,187.6343,204.7063
0.047,105.563,150.5216,180.8455,197.9491
0.0472,98.5553,143.3098,173.646,190.781
0.0474,91.1643,135.7155,166.0635,183.2296
0.0476,83.4193,127.7677,158.127,175.324
0.0478,75.3507,119.4969,149.867,167.0946
0.048,66.9901,110.9348,141.3152,158.5732
0.0482,58.3706,102.1144,132.5045,149.7926
0.0484,49.5259,93.0694,123.4689,140.7868
0.0486,40.4909,83.8349,114.243,131.5906
0.0488,31.3012,74.4462,104.8626,122.2396
0.049,21.993,64.9396,95.3638,112.7699
0.0492,12.6027,55.3517,85.7831,103.2182
0.0494,3.1675,45.7195,76.1577,93.6214
0.0496,-6.2755,36.0802,66.5246,84.0168
0.0498,-15.6892,26.4708,56.921,74.4414
0.05,-25.0365,16.9285,47.384,64.9324
0.0502,-34.2806,7.4901,37.9504,55.5265
0.0504,-43.3851,-1.8081,28.6566,46.2602
0.0506,-52.3142,-10.9301,19.5385,37.1693
0.0508,-61.0327,-19.8409,10.6311,28.289
0.051,-69.5062,-28.5061,1.969,19.6536
0.0512,-77.7015,-36.8923,-6.4147,11.2965
0.0514,-85.5862,-44.9673,-14.4876,3.2499
0.0516,-93.1293,-52.7,-22.2187,-4.4551
0.0518,-100.3012,-60.0607,-29.5783,-11.7887
0.052,-107.0735,-67.0212,-36.5381,-18.7229
0.0522,-113.4196,-73.5549,-43.0714,-25.2308
0.0524,-119.3147,-79.6367,-49.1534,-31.2876
0.0526,-124.7354,-85.2435,-54.7608,-36.87
0.0528,-129.6604,-90.3539,-59.8723,-41.9567
0.053,-134.0704,-94.9487,-64.4684,-46.5284
0.0532,-137.948,-99.0103,-68.5319,-50.5676
0.0534,-141.278,-102.5237,-72.0476,-54.0591
0.0536,-144.0473,-105.4756,-75.0022,-56.9899
0.0538,-146.2451,-107.8553,-77.385,-59.3491
0.054,-147.8627,-109.6542,-79.1874,-61.128
0.0542,-148.8938,-110.8658,-80.403,-62.3203
0.0544,-149.3345,-111.4863,-81.0277,-62.9221
0.0546,-149.1829,-111.5138,-81.06,-62.9316
0.0548,-148.4398,-110.9491,-80.5005,-62.3495
0.055,-147.1081,-109.7952,-79.3521,-61.1787
0.0552,-145.1933,-108.0574,-77.6201,-59.4246
0.0554,-142.7028,-105.7432,-75.3122,-57.0948
0.0556,-139.6465,-102.8626,-72.4383,-54.1991
0.0558,-136.0367,-99.4276,-69.0104,-50.7497
0.056,-131.8875,-95.4526,-65.0428,-46.7608
0.0562,-127.2153,-90.954,-60.552,-42.2489
0.0564,-122.0388,-85.9502,-55.5564,-37.2324
0.0566,-116.3783,-80.4619,-50.0766,-31.7319
0.0568,-110.2563,-74.5112,-44.1348,-25.7697
0.057,-103.6969,-68.1225,-37.7554,-19.3699
0.0572,-96.726,-61.3216,-30.9642,-12.5587
0.0574,-89.3713,-54.1362,-23.7888,-5.3634
0.0576,-81.6618,-46.5953,-16.2582,2.1869
0.0578,-73.628,-38.7294,-8.403,10.0616
0.058,-65.3015,-30.5701,-0.2548,18.2291
0.0582,-56.7154,-22.1505,8.1535,26.6564
0.0584,-47.9035,-13.5044,16.7878,35.3096
0.0586,-38.9007,-4.6667,25.6135,44.154
0.0588,-29.7425,4.3271,34.5949,53.1539
0.059,-20.465,13.4408,43.6959,62.2731
0.0592,-11.1051,22.6378,52.8797,71.4751
0.0594,-1.6995,31.881,62.1096,80.7228
0.0596,7.7145,41.1334,71.3482,89.9792
0.0598,17.0997,50.3576,80.5584,99.2069
0.06,26.419,59.5168,89.7032,108.369
0.0602,35.6358,68.5739,98.7456,117.4286
0.0604,44.7134,77.4927,107.6494,126.3493
0.0606,53.6162,86.2373,116.3787,135.0953
0.0608,62.3089,94.7724,124.8982,143.6315
0.061,70.7572,103.0639,133.1738,151.9234
0.0612,78.9277,111.0782,141.1719,159.9377
0.0614,86.7881,118.7832,148.8603,167.6421
0.0616,94.3074,126.1477,156.208,175.0057
0.0618,101.4559,133.1421,163.1853,181.9986
0.062,108.2054,139.7382,169.7639,188.5926
0.0622,114.5291,145.9092,175.9172,194.7612
0.0624,120.4022,151.6301,181.6201,200.4792
0.0626,125.8013,156.8778,186.8496,205.7236
0.0628,130.7052,161.631,191.5842,210.4729
0.063,135.0946,165.8702,195.8046,214.7079
0.0632,138.9519,169.5782,199.4934,218.4111
0.0634,142.262,172.7396,202.6353,221.5672
0.0636,145.0119,175.3413,205.2174,224.1633
0.0638,147.1906,177.3726,207.2287,226.1885
0.064,148.7894,178.8247,208.6606,227.6341
0.0642,149.8022,179.6913,209.5068,228.4937
0.0644,150.2248,179.9685,209.7632,228.7635
0.0646,150.0556,179.6545,209.4282,228.4416
0.0648,149.2953,178.75,208.5024,227.5288
0.065,147.9467,177.2579,206.9888,226.028
0.0652,146.0152,175.1836,204.8927,223.9446
0.0654,143.5084,172.5346,202.2217,221.286
0.0656,140.4362,169.3209,198.9857,218.0623
0.0658,136.8107,165.5544,195.1967,214.2855
0.066,132.6462,161.2496,190.8691,209.9698
0.0662,127.9591,156.4228,186.0193,205.1318
0.0664,122.7678,151.0926,180.6658,199.7899
0.0666,117.0929,145.2793,174.829,193.9646
0.0668,110.9567,139.0054,168.5314,187.6783
0.067,104.3834,132.295,161.797,180.955
0.0672,97.399,125.1741,154.6519,173.8209
0.0674,90.0309,117.6702,147.1236,166.3034
0.0676,82.3084,109.8124,139.2412,158.4316
0.0678,74.2617,101.6312,131.035,150.236
0.068,65.9227,93.1582,122.537,141.7482
0.0682,57.3243,84.4264,113.7798,133.0013
0.0684,48.5004,75.4697,104.7976,124.029
0.0686,39.4857,66.3229,95.625,114.8663
0.0688,30.3159,57.0216,86.2977,105.5487
0.069,21.0271,47.6019,76.8519,96.1124
0.0692,11.656,38.1005,67.324,86.5939
0.0694,2.2396,28.5544,57.7513,77.0304
0.0696,-7.1851,19.0006,48.1707,67.4589
0.0698,-16.5808,9.4764,38.6195,57.9166
0.07,-25.9104,0.0189,29.1347,48.4406
0.0702,-35.1372,-9.3352,19.7532,39.0677
0.0704,-44.2248,-18.5495,10.5113,29.8342
0.0706,-53.1372,-27.588,1.4449,20.7762
0.0708,-61.8394,-36.4157,-7.4108,11.9286
0.071,-70.297,-44.9982,-16.0215,3.3259
0.0712,-78.4766,-53.3022,-24.3539,-4.9986
0.0714,-86.3459,-61.2953,-32.3756,-13.0126
0.0716,-93.874,-68.9465,-40.0557,-20.6851
0.0718,-101.0311,-76.2262,-47.3643,-27.9863
0.072,-107.789,-83.1061,-54.2734,-34.8881
0.0722,-114.121,-89.5596,-60.7561,-41.3638
0.0724,-120.0021,-95.5616,-66.7877,-47.3883
0.0726,-125.4092,-101.089,-72.3447,-52.9386
0.0728,-130.3209,-106.1204,-77.406,-57.9932
0.073,-134.7178,-110.6365,-81.9522,-62.5328
0.0732,-138.5826,-114.6199,-85.9658,-66.54
0.0734,-141.9,-118.0554,-89.4317,-69.9996
0.0736,-144.657,-120.9299,-92.3367,-72.8985
0.0738,-146.8427,-123.2325,-94.6701,-75.2259
0.074,-148.4485,-124.9546,-96.4231,-76.9731
0.0742,-149.468,-126.09,-97.5895,-78.1338
0.0744,-149.8973,-126.6345,-98.1653,-78.704
0.0746,-149.7346,-126.5865,-98.1487,-78.682
0.0748,-148.9805,-125.9466,-97.5404,-78.0684
0.075,-147.6382,-124.7179,-96.3433,-76.8662
0.0752,-145.7128,-122.9056,-94.5629,-75.0807
0.0754,-143.212,-120.5174,-92.2067,-72.7196
0.0756,-140.1457,-117.5631,-89.2845,-69.7927
0.0758,-136.526,-114.0548,-85.8086,-66.3121
0.076,-132.3671,-110.0068,-81.7931,-62.2922
0.0762,-127.6855,-105.4356,-77.2545,-57.7492
0.0764,-122.4996,-100.3597,-72.2113,-52.7018
0.0766,-116.83,-94.7994,-66.6839,-47.1704
0.0768,-110.699,-88.7773,-60.6948,-41.1773
0.077,-104.1308,-82.3174,-54.2681,-34.7468
0.0772,-97.1514,-75.4458,-47.4298,-27.9048
0.0774,-89.7883,-68.1899,-40.2074,-20.6788
0.0776,-82.0705,-60.5789,-32.63,-13.098
0.0778,-74.0286,-52.6432,-24.728,-5.1927
0.078,-65.6942,-44.4146,-16.5332,3.0052
0.0782,-57.1003,-35.9259,-8.0786,11.463
0.0784,-48.2808,-27.2111,0.6021,20.1466
0.0786,-39.2705,-18.305,9.474,29.0212
0.0788,-30.105,-9.2432,18.5014,38.0513
0.079,-20.8204,-0.0618,27.6483,47.2008
0.0792,-11.4533,9.2025,36.878,56.4328
0.0794,-2.0409,18.5128,46.1534,65.7106
0.0796,7.3798,27.8318,55.4376,74.9969
0.0798,16.7717,37.1224,64.6932,84.2546
0.08,26.0975,46.3475,73.8832,93.4466
0.0802,35.3206,55.4704,82.9708,102.536
0.0804,44.4046,64.4545,91.9196,111.4865
0.0806,53.3134,73.2641,100.6938,120.2622
0.0808,62.0121,81.864,109.2581,128.828
0.081,70.4663,90.2198,117.5782,137.1494
0.0812,78.6425,98.2982,125.6208,145.1933
0.0814,86.5086,106.0669,133.3536,152.9272
0.0816,94.0335,113.4949,140.7456,160.3201
0.0818,101.1874,120.5524,147.767,167.3424
0.082,107.9422,127.2112,154.3896,173.9657
0.0822,114.2711,133.4447,160.5867,180.1635
0.0824,120.1493,139.2278,166.3334,185.9107
0.0826,125.5534,144.5374,171.6065,191.1842
0.0828,130.4623,149.3521,176.3845,195.9626
0.083,134.8564,153.6526,180.6483,200.2265
0.0832,138.7184,157.4214,184.3803,203.9586
0.0834,142.0332,160.6435,187.5654,207.1437
0.0836,144.7876,163.3055,190.1905,209.7686
0.0838,146.9707,165.3968,192.2447,211.8225
0.084,148.5739,166.9087,193.7193,213.2968
0.0842,149.591,167.8348,194.6081,214.1851
0.0844,150.0178,168.1711,194.9071,214.4834
0.0846,149.8527,167.9159,194.6145,214.1901
0.0848,149.0963,167.0699,193.7309,213.3058
0.085,147.7517,165.6361,192.2595,211.8334
0.0852,145.8241,163.6197,190.2054,209.7783
0.0854,143.3211,161.0284,187.5763,207.1481
0.0856,140.2526,157.8721,184.382,203.9526
0.0858,136.6307,154.1628,180.6347,200.2039
0.086,132.4698,149.9148,176.3487,195.9165
0.0862,127.7861,145.1445,171.5403,191.1065
0.0864,122.5983,139.8705,166.2281,185.7927
0.0866,116.9267,134.1132,160.4325,179.9953
0.0868,110.7938,127.8949,154.1759,173.7368
0.087,104.2237,121.24,147.4825,167.0415
0.0872,97.2425,114.1742,140.3783,159.9352
0.0874,89.8775,106.7252,132.8907,152.4454
0.0876,82.158,98.922,125.0489,144.6013
0.0878,74.1143,90.7951,116.8832,136.4333
0.088,65.7783,82.3761,108.4255,127.9731
0.0882,57.1827,73.6981,99.7087,119.2537
0.0884,48.3616,64.795,90.7666,110.3089
0.0886,39.3497,55.7014,81.634,101.1736
0.0888,30.1826,46.4531,72.3467,91.8834
0.089,20.8964,37.0861,62.9406,82.4743
0.0892,11.5279,27.6371,53.4524,72.9831
0.0894,2.114,18.1431,43.9193,63.4468
0.0896,-7.3082,8.6413,34.3781,53.9024
0.0898,-16.7015,-0.8312,24.8663,44.3872
0.09,-26.0287,-10.2373,15.4207,34.9382
0.0902,-35.2532,-19.5403,6.0783,25.5923
0.0904,-44.3384,-28.7036,-3.1245,16.3858
0.0906,-53.2486,-37.6915,-12.152,7.3546
0.0908,-61.9486,-46.4688,-20.9689,-1.4662
0.091,-70.404,-55.0012,-29.541,-10.0421
0.0912,-78.5815,-63.2553,-37.8347,-18.3399
0.0914,-86.4488,-71.1987,-45.818,-26.3272
0.0916,-93.9748,-78.8006,-53.4597,-33.9731
0.0918,-101.1299,-86.0311,-60.7301,-41.2478
0.092,-107.8858,-92.8621,-67.601,-48.1231
0.0922,-114.2159,-99.2669,-74.0458,-54.5723
0.0924,-120.0951,-105.2205,-80.0394,-60.5705
0.0926,-125.5004,-110.6997,-85.5587,-66.0944
0.0928,-130.4102,-115.6832,-90.5823,-71.1227
0.093,-134.8054,-120.1516,-95.0908,-75.6361
0.0932,-138.6685,-124.0875,-99.0669,-79.6171
0.0934,-141.9842,-127.4758,-102.4955,-83.0506
0.0936,-144.7396,-130.3033,-105.3632,-85.9235
